Energy,Coeff
0.0061305,43474.75927429561
0.006222,43474.75927429561
0.01069,49386.41414264414
0.01142761,52537.412420078
0.01221612,55942.78380471694
0.01305903,58924.63880821586
0.0139601,62802.367982062686
0.01492335,66499.07044116894
0.01595306,69878.35671713189
0.01705382,72866.61883910418
0.01823053,74352.501305035
0.01948844,75160.56838081058
0.02083314,74367.62675047437
0.02227063,72196.2871282469
0.0238073,68336.31265131079
0.02545001,62905.93296513759
0.02720606,57217.01671413577
0.02908327,50408.621040570455
0.03109002,44046.46403835517
0.032928,38925.95420431932
0.03323523,38170.468753469235
0.033432,37709.78570030197
0.0335664,37341.324838074244
0.033768,36658.88778849679
0.034272,35433.21973299426
0.034888,34261.32234054826
0.035422,32906.29799317829
0.03552846,32557.451806421617
0.0355644,32459.71455113176
0.03577,32044.87632567627
0.035778,32021.19948478814
0.0363175,31730.303012656408
0.0364635,31461.587435164212
0.0366825,30998.199932797594
0.03723,29840.178242959584
0.03797993,28718.018975007668
0.04060054,24891.186198520245
0.04340198,37672.303203811825
0.045864,34867.62863123473
0.04639671,34261.33016584021
0.046566,34075.22877023713
0.0467532,33853.16828545355
0.047034,33380.91166438117
0.047736,32233.845543552703
0.04959809,29380.585341988513
0.05302035,31011.200984653737
0.05667876,27616.1645135422
0.06058959,23505.656160556322
0.06477028,19689.91773870672
0.06923942,16615.642139963347
0.07401695,14343.3537358646
0.075558,13718.480930143212
0.0767145,13391.280312984989
0.0770229,13284.531490433686
0.0774855,13121.361807658963
0.078642,12831.181002686195
0.07912411,12718.01849302887
0.08458368,12199.046703358643
0.09041995,11974.104626935561
0.09665893,12269.278020519705
0.1,12670.745871408937
0.1005,12722.63911564551
0.1010025,12778.143389480843
0.10150751,12837.43956161749
0.10201505,12883.029688760564
0.10252513,12946.317113749878
0.10303775,13016.921053642971
0.10355294,13077.291936537253
0.1040707,13137.874976132965
0.10459106,13213.173143220503
0.10511401,13299.680285490896
0.10563958,13375.777904783314
0.10616778,13448.728694053996
0.10669862,13529.37951390297
0.10723211,13632.810456352925
0.10776827,13722.061118000569
0.10830712,13770.620580138526
0.10884865,13856.935180521325
0.10939289,13921.160560946362
0.10993986,14019.927175912073
0.11048956,14115.542234093553
0.11104201,14211.92637448765
0.11159722,14293.398140089868
0.1121552,14355.109974457662
0.11271598,14465.072681813832
0.11327956,14563.88461473156
0.11384596,14651.467566983512
0.11441519,14723.480714415811
0.11498726,14807.891914369357
0.1155622,14921.13638637043
0.11614001,15010.676986453318
0.11672071,15100.7217204407
0.11730431,15220.352058486305
0.11789083,15324.091732965464
0.11848029,15407.696333173417
0.11907269,15546.453739755385
0.11966805,15635.500308430699
0.12026639,15707.966243325583
0.12086772,15814.998755573093
0.12147206,15901.271840204783
0.12207942,15992.375766294455
0.12268982,16105.781316239792
0.12330327,16193.698681158561
0.12391979,16304.166101532663
0.12453939,16261.01010984256
0.12516208,16394.840014641344
0.12578789,16516.150153112383
0.12641683,16651.919272598003
0.12704892,16756.72057952416
0.12768416,16875.944097747266
0.12832258,16968.08152790548
0.12896419,17046.924376562503
0.12960902,17139.994934488972
0.13025706,17242.958888445617
0.13090835,17322.959703373414
0.13156289,17426.900059985495
0.1322207,17512.413732347934
0.13288181,17607.948196057143
0.13354621,17713.657636182306
0.13421395,17810.208817667306
0.13488502,17912.190226531515
0.13555944,17975.660211096936
0.13623724,18117.898083107488
0.13691842,18196.89260692414
0.13760302,18271.18801032138
0.13829103,18325.905687372335
0.13898249,18410.85315591219
0.1396774,18501.156690144653
0.14037579,18561.53851155586
0.14107766,18652.592618311035
0.14178305,18744.172651614284
0.14249197,18820.791448480737
0.14320443,18892.6632196852
0.14392045,18985.41644922145
0.14464005,19057.83467497904
0.14536325,18991.287694605628
0.14609007,19085.225151173083
0.14682052,19142.766402458758
0.14755462,19205.817201386522
0.14829239,19263.873976778515
0.14903386,19353.64934403706
0.14977903,19406.702594445935
0.15052792,19465.16740205869
0.15128056,19534.43225066966
0.15203696,19636.19721320228
0.15279715,19754.58704234823
0.15356113,19797.785036373727
0.15432894,19873.5665338254
0.15510058,19976.822646076296
0.15587609,20036.928003485544
0.15665547,20113.627486348214
0.15743875,20200.978900425132
0.15822594,20273.185133638563
0.15901707,20322.98251299731
0.15981215,20400.655005501572
0.16061121,20445.165744941063
0.16141427,20500.93023394755
0.16222134,20540.054112318925
0.16303245,20568.050688053183
0.16384761,20629.626153748115
0.16466685,20680.259962948126
0.16549018,20719.74188203237
0.16631763,20764.82976416109
0.16714922,20832.822980170404
0.16798497,20878.18572605954
0.16882489,20923.665526763823
0.16966902,20963.564203308648
0.17051736,21009.27654398223
0.17136995,21049.263189454305
0.1722268,21089.356967729964
0.17308793,21129.56017313719
0.17395337,21169.876308801377
0.17482314,21221.721127870027
0.17569726,21256.387144659748
0.17657574,21291.02926376138
0.17745862,21337.37611618903
0.17834591,21366.437844719792
0.17923764,21401.287502791696
0.18013383,21412.950594073744
0.1810345,21453.82000460665
0.18193967,21477.062484064634
0.18284937,21506.35898890375
0.18376362,21512.117148114598
0.18468244,21529.765377195174
0.18560585,21553.119600960814
0.18653388,21570.707532286677
0.18746655,21570.669255269804
0.18840388,21588.306217363428
0.1893459,21600.04885478072
0.19029263,21617.640276651473
0.19124409,21641.211446309746
0.19220031,21641.236330226955
0.19316131,21653.00496481204
0.19412712,21658.87025974875
0.19509776,21664.71837725525
0.19607325,21664.77295039727
0.19705361,21658.813679848547
0.19803888,21658.843594020353
0.19902907,21658.86445550721
0.20002422,21647.108764183555
0.20102434,21641.238038903328
0.20202946,21623.60949350646
0.20303961,21617.64079002044
0.20405481,21600.04007606098
0.20507508,21588.328590262438
0.20610046,21570.77016666701
0.20713096,21558.992868981706
0.20816661,21541.381380930365
0.20920745,21518.05790823274
0.21025348,21506.36464046784
0.21130475,21500.44341765562
0.21236128,21465.456513378726
0.21342308,21442.10629894773
0.2144902,21418.813746417833
0.21556265,21401.29588634785
0.21664046,21372.304951515416
0.21772366,21337.388745079596
0.21881228,21308.463188758484
0.21990634,21273.73489284856
0.22100588,21233.236140038844
0.2221109,21198.62364205493
0.22322146,21141.109423647104
0.22433757,21118.037741990178
0.22545925,21077.93810394226
0.22658655,21032.05770213981
0.22771948,21003.562617351694
0.22885808,20963.56925035233
0.23000237,20923.71476404247
0.23115238,20889.58905152891
0.23230814,20838.4766792049
0.23346969,20764.849301458475
0.23463703,20731.002208920305
0.23581022,20708.463114956543
0.23698927,20646.557034106067
0.23817422,20590.422273843356
0.23936509,20556.801595023266
0.24056191,20540.00030506677
0.24176472,20467.397524022464
0.24297355,20433.96271497186
0.24418841,20384.006032411835
0.24521055,20328.471033539212
0.24540936,20323.004879424658
0.24558945,20317.476159538364
0.2466364,20273.228724129884
0.24786959,20206.961111942295
0.24910893,20940.756908536463
0.25035448,20900.96456044271
0.25160625,20838.48519608801
0.25286428,20759.25222073285
0.2541286,20714.04547195519
0.25539925,20646.55353922987
0.25667624,20584.81746077771
0.25795962,20539.97636495169
0.25859581,20512.04624208873
0.25900419,20500.909775729273
0.25924942,20456.312449438552
0.26054567,20422.846955122295
0.2618484,20872.543304251172
0.26315764,20776.153078512623
0.26447343,20714.11517831901
0.26579579,20640.13447675139
0.26712477,20556.774647802038
0.2684604,20506.509763573904
0.2698027,20433.978837984232
0.27115171,20334.027207816078
0.27250747,20262.18427910251
0.27387001,20141.002235201522
0.27523936,20036.943918302364
0.27661556,19927.85118964852
0.27799863,19803.143747472404
0.27938863,19689.895616209255
0.28078557,19545.145949999984
0.2821895,19459.89465397838
0.28360044,19396.11601213349
0.28501845,19284.95967202077
0.28644354,19200.578373319247
0.28787576,19111.369888840753
0.28931514,19017.321386239117
0.29076171,18913.233196873294
0.29221552,18861.376980168425
0.2936766,18752.91449156976
0.29514498,18655.267655945856
0.29662071,18522.29303028204
0.29810381,18400.289021998706
0.29959433,18294.12462970889
0.3010923,18213.552425885304
0.30259776,18113.218304485912
0.30411075,18003.423754585874
0.3056313,17918.999690289696
0.30715946,17810.18930528808
0.30869526,17741.2068760413
0.31023873,17657.715018943534
0.31178993,17579.474613259994
0.31334888,17467.47057734159
0.31491562,17555.354484095547
0.3164902,17460.144263473867
0.31807265,17374.81874524602
0.31966301,17266.43239120327
0.32126133,17191.416985055366
0.32286764,17116.65347134554
0.32448197,17042.25373656569
0.32610438,16949.680662424005
0.32773491,16875.916364726712
0.32937358,16761.278626246953
0.33102045,16679.246186189248
0.33267555,16547.732211691728
0.33433893,16462.134246803016
0.33601062,16336.674060592488
0.33769068,16243.160402546091
0.33937913,16167.831600545302
0.34107602,16097.189871070896
0.3427814,16009.299948994449
0.34449531,15934.904832571694
0.34621779,15860.790815634247
0.34794888,15774.020123272567
0.34968862,15722.139798791233
0.35143706,15648.937327788944
0.35319425,15554.621278359344
0.35496022,15435.273191340351
0.35673502,15337.811930273952
0.3585187,15245.068671992962
0.36031129,15173.768762455638
0.36211285,15090.186585287687
0.36392341,14998.740580253487
0.36574303,14932.483412018175
0.36757174,14837.6731068719
0.3694096,14776.10845629339
0.37125665,14698.436210292246
0.37311293,14612.98374812601
0.3749785,14531.98740009137
0.37685339,14607.663601389193
0.37873766,14528.26561042234
0.38063135,14449.328749615759
0.3825345,14355.061889001936
0.38444718,14269.208453510266
0.38636941,14149.002389477944
0.38830126,14056.560102534355
0.39024276,13953.20158026266
0.39219398,13873.30775132142
0.39415495,13805.143686572012
0.39612572,13718.469931585507
0.39810635,13647.264298608132
0.40009688,13565.174068613745
0.40209737,13490.95604771145
0.40410785,13431.800312721143
0.40612839,13350.874753973723
0.40815904,13252.090283082907
0.41019983,13143.067055936808
0.41225083,13056.401483280955
0.41431208,12980.972459228486
0.41638364,12898.750440452432
0.41846556,12820.520441145965
0.42055789,12739.168200072943
0.42266068,12665.24088758854
0.42477398,12588.187160416095
0.42477688,12588.183497311118
0.42582312,12556.775459220962
0.42689785,12511.49745155326
0.42903234,13230.236851123613
0.4311775,13121.343764001922
0.43333339,13049.221511800917
0.43550006,12970.224472297039
0.43767756,12880.934800841547
0.43986595,12806.35408265599
0.44206528,12721.5503424403
0.4442756,12658.216976940432
0.44649698,12577.70787347822
0.44872947,12504.566559195959
0.45097311,12424.820992072455
0.45322798,12427.76586391847
0.45549412,12346.607122546287
0.45777159,12215.724874836125
0.46006045,12155.772135050767
0.46236075,12089.417385572502
0.46467255,12006.945888887498
0.46699592,11941.341959088044
0.4693309,11856.512200005443
0.47167755,11798.082298877378
0.47403594,11730.252432326468
0.47640612,11646.729463988375
0.47878815,11528.739980098682
0.48118209,11443.277999692606
0.483588,11367.758507811446
0.48600594,11283.297944330028
0.48843597,11205.560533716038
0.49087815,11128.268621094801
0.4909216,11128.253367230578
0.49227841,11097.479494242907
0.49333254,11072.868471440384
0.4957992,11165.317706395494
0.4982782,11085.174575399282
0.50076959,11005.483851982244
0.50327344,10938.452613655309
0.5057898,10986.573335606281
0.50831875,10927.004005795743
0.51086035,10829.43585928258
0.51341465,10753.150028937755
0.51598172,10680.314353388389
0.51856163,10590.665625651396
0.52115444,10507.482148604584
0.52376021,10444.780987058606
0.52637901,10359.859300910879
0.52901091,10292.396692957504
0.53165596,10228.137759462372
0.53431424,10158.72301441079
0.53698581,10073.242872020537
0.53967074,9993.887038237763
0.5423691,9890.780108992696
0.54508094,9802.015555384898
0.54780635,9724.614013237657
0.55054538,9658.320801908298
0.5532981,9584.542130850044
0.5560646,9529.528557719426
0.55884492,9448.843099359843
0.56163914,9394.522907790963
0.56444734,9325.076787270556
0.56726958,9222.980507367685
0.57010592,9147.048788966129
0.57295645,9079.164184589552
0.57582123,8999.236427665046
0.57870034,8934.729665177998
0.58159384,8870.591267688123
0.58450181,8801.948380890488
0.58742432,8731.31711713323
0.59036144,8753.85282864124
0.59331325,8682.696970863622
0.59410753,8661.448403373708
0.59589253,8630.859407659313
0.59627982,8619.12621484268
0.59926122,8756.230792792123
0.60225752,8696.871943722643
0.60526881,8630.863717477441
0.60829515,8565.332823366769
0.61133663,8514.16244824841
0.61439331,8447.168494035805
0.61746528,8366.954330402279
0.6205526,8280.650400548298
0.62365537,8201.899696474764
0.62677364,8114.9234244033405
0.62990751,8066.229124687194
0.63305705,8002.4479261440765
0.63622234,7943.462626458501
0.63940345,7874.043603490825
0.64260046,7826.6232136372655
0.64581347,7758.087316986464
0.64904253,7668.898883433408
0.65228775,7605.737533139525
0.65554919,7545.099683260788
0.65882693,7480.714737187235
0.66212107,7418.843933382837
0.66543167,7363.511348125676
0.66875883,7302.431925190873
0.67210262,7315.7641176188945
0.67546314,7258.206228083804
0.67884045,7187.338623901768
0.68223466,7120.983364004853
0.68564583,7047.497097247799
0.68907406,6968.980646734865
0.69251943,6923.387462556666
0.69598202,6859.240688641276
0.69946194,6814.279267395136
0.70295924,6749.177412336934
0.70647404,6706.686538429316
0.71000641,6640.648966940603
0.71355644,6560.685701223467
0.71712423,6508.42595190174
0.72070985,6442.25413194266
0.7243134,6394.328205702465
0.72793496,6339.652345052963
0.73157464,6285.35930864996
0.73523251,6231.4445303753455
0.73890867,6227.4612849057785
0.74260322,6158.14788850361
0.74631623,6092.859555790759
0.75004781,6049.675414567232
0.75379805,5991.979408141406
0.75756704,5946.170305293958
0.76135488,5900.666059786192
0.76516165,5849.030527306879
0.76898746,5788.227299719951
0.7728324,5726.375818751538
0.77669656,5674.468412268168
0.78058004,5621.4105200641825
0.78448294,5567.215524232955
0.78840536,5525.705065578628
0.79234738,5476.828939183365
0.79630912,5493.289641961808
0.80029067,5453.116350283197
0.80429212,5389.750081493384
0.80831358,5347.421564247273
0.81235515,5292.458499071891
0.81641693,5245.168598485947
0.82049901,5194.045786155164
0.8246015,5151.8097998156145
0.82872451,5112.673404415897
0.83286813,5068.299198616742
0.83703248,5013.33238104169
0.84121764,4954.847477779497
0.84542373,4891.638871755401
0.84965084,4851.673532247508
0.8538991,4808.048662588876
0.85816859,4771.301076401829
0.86245944,4724.425107679279
0.86677173,4688.234344155349
0.87110559,4638.22850210835
0.87546112,4583.625150380804
0.87983843,4540.834019343277
0.88423762,4497.125796557808
0.88865881,4452.538006010051
0.8931021,4420.562175500331
0.89756761,4376.590225213547
0.90205545,4378.1159942871645
0.90656573,4338.983344260625
0.91109856,4297.847392747091
0.91565405,4260.564101554515
0.92023232,4223.583535293549
0.92483348,4174.359735825711
0.92945765,4123.406997244649
0.93410494,4070.799042882082
0.93877546,4040.852685164999
0.94346934,4002.3213268311915
0.94818668,3970.638632037516
0.95292762,3933.776278735352
0.95769226,3898.2854908244385
0.96248072,3851.3855581404646
0.96729312,3809.169955503094
0.97212959,3774.631291614875
0.97699023,3735.188191723377
0.98187519,3702.234123053005
0.98678456,3666.459806368399
0.99171848,3632.992995140775
0.99667708,3635.040059565784
1.0016605,3596.609341743669
1.0066688,3554.6641583188957
1.0117021,3513.1855912970536
1.0167606,3474.9765911853174
1.0218444,3441.868254721083
1.0269536,3411.8262912134132
1.0320884,3377.3609201846484
1.0372489,3354.2480832436627
1.0424351,3313.8841079967456
1.0476473,3272.2354369695254
1.0528855,3241.6437747605423
1.0581499,3207.777132925155
1.0634407,3176.813094723697
1.0687579,3147.0393297930023
1.0741017,3115.704969471859
1.0794722,3108.5864853983903
1.0848695,3073.0799479227744
1.0902939,3037.238215819059
1.0957454,3005.8422075164494
1.1012241,2981.2868602869394
1.1067302,2951.159603698124
1.1122639,2926.835559749311
1.1178252,2887.8168285769984
1.1234143,2857.5269958984895
1.1290314,2827.927260968627
1.1346765,2802.758303307457
1.1403499,2775.6878611576435
1.1460517,2747.437936148433
1.1517819,2750.273669442328
1.1575408,2726.5842848874236
1.1633285,2696.7738512573465
1.1691452,2671.3733036065314
1.1749909,2645.695829958168
1.1808659,2616.5509409197734
1.1867702,2593.025247879712
1.192704,2566.6944216936236
1.1986676,2538.9536079339246
1.2046609,2510.608152192316
1.2106842,2481.7703619045474
1.2167376,2448.1647694489743
1.2228213,2428.1212232294583
1.2289354,2401.483977924681
1.2350801,2377.4825301468018
1.2412555,2357.303808859289
1.2474618,2332.8345634150096
1.2536991,2301.6778998992254
1.2599676,2279.4787506437297
1.2662674,2257.5457248553935
1.2725988,2232.2330071257616
1.2789618,2211.396671981245
1.2853566,2186.992242051273
1.2917833,2187.470363949042
1.2982423,2165.1836735169372
1.3047335,2144.8754787710495
1.3112571,2122.6050018643086
1.3178134,2100.4214161348386
1.3244025,2072.2750182782215
1.3310245,2045.6269250936562
1.3376796,2024.4256955520068
1.344368,2004.6620094112266
1.3510899,1984.4846976677202
1.3578453,1967.6860858112561
1.3646345,1943.4038395618948
1.3714577,1919.2029909384653
1.378315,1900.5462513896596
1.3852066,1879.8536136479258
1.3921326,1861.0081882268785
1.3990933,1840.8941126122543
1.4060887,1819.4044637804272
1.4131192,1822.5542652514384
1.4201848,1801.731604936986
1.4272857,1777.2171192448664
1.4344221,1757.4987902504824
1.4415942,1737.1591580276029
1.4488022,1720.2708150394126
1.4560462,1705.3051566929153
1.4633265,1685.899290686625
1.4706431,1666.813698407495
1.4779963,1646.6343480313492
1.4853863,1629.0659306494222
1.4928132,1612.4773741118488
1.5002773,1594.194676233963
1.5077787,1576.7328485387045
1.5153176,1574.9875215744473
1.5228942,1552.9890734433195
1.5305086,1535.46984231401
1.5381612,1518.5551497190913
1.545852,1502.1959462915356
1.5535812,1487.0804590491102
1.5613491,1474.465841325971
1.5691559,1457.1861359685063
1.5770017,1437.9265673314505
1.5848867,1421.8956458305422
1.5928111,1406.4429951678528
1.6007752,1393.6680241886008
1.608779,1378.4070289473625
1.6168229,1377.301932432298
1.624907,1366.3669186466304
1.6330316,1348.2982179427906
1.6411967,1335.0869972532448
1.6494027,1320.1467971697118
1.6576497,1305.6268057834884
1.665938,1290.7347016552
1.6742677,1278.7403056040641
1.682639,1266.3516241320065
1.6910522,1250.1695520667681
1.6995075,1233.4473967617553
1.708005,1217.3779011467004
1.716545,1203.200262527991
1.7251278,1192.732806715033
1.7337534,1180.8622309101906
1.7424222,1166.8979691936881
1.7511343,1154.8755460741463
1.7598899,1139.948881697913
1.7686894,1127.6772496160602
1.7775328,1114.468698913289
1.7864205,1102.6947216850808
1.7953526,1102.4661045870187
1.8043294,1088.9284583147414
1.8088491,1083.4380316918027
1.809551,1082.9257460666454
1.813351,3106.022751268625
1.8224178,3084.532406906262
1.8315299,3055.319960677395
1.8406875,3031.9997024266722
1.8498909,3007.3222061417696
1.8591404,2988.0770425309747
1.8684361,2958.226276615718
1.8709394,2953.702383116521
1.8722607,2951.6579268937744
1.8777783,3708.568224933277
1.8871672,3714.800259721028
1.896603,3720.173584667586
1.906086,3729.5712097093765
1.9156165,3741.719341617242
1.9251945,3756.5946404725782
1.9348205,3768.5051532049183
1.9444946,3768.3453305271364
1.9542171,3767.348704363843
1.9639882,3762.6646435560074
1.9738081,3752.8373408305324
1.9836772,3734.4034330534855
1.9935955,3717.9921765643467
2.0035635,3705.6321052074372
2.0135813,3686.1457481260427
2.0236492,3658.0266734234465
2.0337675,3674.970184646196
2.0439363,3643.5693585917556
2.054156,3605.6682055988213
2.0644268,3552.6187831775055
2.0747489,3503.5581858305945
2.0851227,3458.252713930995
2.0955483,3417.748725320514
2.106026,3378.345469442453
